Freq,Magnitude_dB,Angle_deg
1,3.02115911962169,-145.279516178991
1.02329299228075,3.08435806877157,-145.888012327318
1.0471285480509,3.14558304193739,-146.491082040841
1.07151930523761,3.20486894372067,-147.088497213966
1.09647819614318,3.26225175991954,-147.680041569777
1.12201845430196,3.31776844278884,-148.265510830272
1.14815362149688,3.37145679702319,-148.844712834138
1.17489755493953,3.42335536700822,-149.417467601548
1.20226443461741,3.4735033259099,-149.983607349876
1.23026877081238,3.52194036722615,-150.542976460731
1.25892541179417,3.56870659904069,-151.095431401721
1.28824955169313,3.61384244187515,-151.640840607727
1.31825673855641,3.65738852989305,-152.179084320494
1.34896288259165,3.69938561644242,-152.710054393731
1.38038426460288,3.73987448374108,-153.233654064421
1.41253754462275,3.77889585702653,-153.749797693294
1.44543977074593,3.81649032359175,-154.258410480409
1.47910838816821,3.85269825653244,-154.7594281558
1.51356124843621,3.88755974340312,-155.252796648976
1.54881661891248,3.92111451987131,-155.738471742851
1.58489319246111,3.95340190836472,-156.216418710963
1.62181009735893,3.98446076153829,-156.686611943802
1.65958690743756,4.01432941078729,-157.149034566009
1.69824365246174,4.04304561935096,-157.603678045705
1.73780082874937,4.07064654022544,-158.050541801018
1.77827941003892,4.09716867850517,-158.489632802733
1.81970085860998,4.12264785824629,-158.920965177577
1.86208713666287,4.14711919327608,-159.344559812933
1.90546071796325,4.17061706231572,-159.760443964212
1.94984459975804,4.19317508776817,-160.168650867643
1.99526231496888,4.2148261181085,-160.569219358974
2.04173794466953,4.23560221383446,-160.962193498577
2.08929613085404,4.25553463649584,-161.347622205983
2.13796208950223,4.27465384088295,-161.725558902851
2.18776162394955,4.29298946988423,-162.09606116569
2.23872113856834,4.31057035207496,-162.459190390087
2.29086765276777,4.32742450159724,-162.815011464364
2.34422881531992,4.34357912037373,-163.163592456177
2.39883291901949,4.35906060227323,-163.505004309964
2.45470891568503,4.37389453907942,-163.839320556585
2.51188643150958,4.3881057282836,-164.166617034751
2.57039578276886,4.40171818224377,-164.486971625052
2.63026799189538,4.4147551387262,-164.800463995497
2.69153480392691,4.42723907269115,-165.107175359129
2.75422870333816,4.43919170908179,-165.407188243914
2.81838293126445,4.45063403650671,-165.700586273131
2.8840315031266,4.4615863219178,-165.98745395895
2.95120922666638,4.47206812565055,-166.267876504998
3.01995172040201,4.48209831733379,-166.541939621674
3.09029543251359,4.49169509214057,-166.809729350921
3.16227766016837,4.50087598741828,-167.071331901142
3.23593656929628,4.50965789967429,-167.32683349292
3.31131121482591,4.51805710176244,-167.576320212706
3.38844156139202,4.52608926020096,-167.81987787709
3.46736850452531,4.5337694526138,-168.05759190493
3.54813389233575,4.54111218526099,-168.289547198036
3.63078054770101,4.54813141039967,-168.51582802968
3.71535229097172,4.55484054373221,-168.736517941428
3.8018939632056,4.56125248168744,-168.951699645949
3.8904514499428,4.56737961859767,-169.161454937932
3.98107170553496,4.57323386365069,-169.365864610675
4.07380277804112,4.57882665772955,-169.565008379515
4.16869383470335,4.58416898996128,-169.758964810431
4.26579518801592,4.58927141408845,-169.947811254588
4.36515832240165,4.59414406458636,-170.131623788319
4.46683592150962,4.59879667245764,-170.310477157229
4.57088189614874,4.60323858081994,-170.484444725932
4.67735141287197,4.60747876021196,-170.653598431199
4.78630092322637,4.61152582360968,-170.818008740094
4.89778819368445,4.61538804109091,-170.977744611241
5.01187233627271,4.61907335435701,-171.132873460149
5.12861383991364,4.62258939082738,-171.283461127859
5.24807460249771,4.62594347749167,-171.429571852885
5.37031796370252,4.62914265459076,-171.571268246115
5.49540873857623,4.6321936888497,-171.708611268586
5.62341325190348,4.6351030865189,-171.841660211778
5.75439937337156,4.6378771062418,-171.97047268115
5.88843655355588,4.64052177143305,-172.095104581122
6.02559586074356,4.64304288269271,-172.215610103196
6.16595001861481,4.64544602973485,-172.332041715997
6.30957344480192,4.64773660318779,-172.444450157127
6.45654229034654,4.64991980614323,-172.552884427387
6.60693448007594,4.65200066547842,-172.657391787063
6.7608297539198,4.65398404290167,-172.758017753397
6.91830970918935,4.65587464589405,-172.854806100675
7.07945784384136,4.65767703829744,-172.947798861458
7.24435960074988,4.65939565078738,-173.037036329809
7.41310241300916,4.66103479107542,-173.122557066065
7.58577575029182,4.66259865395421,-173.204397903085
7.7624711662869,4.66409133106894,-173.282593954327
7.94328234724279,4.66551682053511,-173.357178623199
8.12830516164097,4.66687903628354,-173.42818361393
8.31763771102669,4.66818181725551,-173.495638943933
8.51138038202374,4.66942893632371,-173.559572957466
8.70963589956078,4.67062410903449,-173.620012340721
8.91250938133743,4.67177100206405,-173.676982137919
9.12010839355907,4.67287324148386,-173.730505769087
9.33254300796988,4.67393442080435,-173.780605048394
9.54992586021433,4.67495810870111,-173.827300203955
9.77237220955808,4.67594785656509,-173.870609898401
9.99999999999997,4.67690720576791,-173.910551250397
10.2329299228075,4.67783969468592,-173.947139856863
10.471285480509,4.67874886539392,-173.980389815818
10.715193052376,4.67963827023339,-174.010313749878
10.9647819614318,4.6805114779368,-174.036922829791
11.2201845430196,4.6813720796889,-174.060226798762
11.4815362149688,4.68222369475528,-174.080233996237
11.7489755493953,4.68306997595035,-174.096951382123
12.0226443461741,4.68391461487523,-174.110384560492
12.3026877081238,4.68476134683532,-174.120537803063
12.5892541179416,4.68561395567467,-174.127414072148
12.8824955169313,4.68647627824449,-174.131015042778
13.182567385564,4.6873522088733,-174.131341124173
13.4896288259165,4.6882457035029,-174.12839148023
13.8038426460288,4.68916078380902,-174.122164048847
14.1253754462275,4.69010154121983,-174.112655560172
14.4543977074592,4.69107214074925,-174.099861553472
14.791083881682,4.69207682495999,-174.083776392822
15.135612484362,4.69311991775839,-174.064393281209
15.4881661891248,4.69420582832416,-174.041704273405
15.8489319246111,4.69533905508838,-174.015700287339
16.2181009735892,4.69652418982709,-173.986371114002
16.5958690743755,4.69776592186072,-173.95370542625
16.9824365246174,4.69906904249263,-173.917690786157
17.3780082874937,4.70043844968611,-173.878313651254
17.7827941003892,4.70187915289326,-173.835559379973
18.1970085860998,4.70339627836806,-173.789412235902
18.6208713666286,4.70499507461078,-173.739855391733
19.0546071796324,4.70668091835092,-173.686870932517
19.4984459975804,4.70845932079314,-173.630439858883
19.9526231496887,4.71033593439596,-173.57054209022
20.4173794466952,4.71231655995844,-173.5071564682
20.8929613085403,4.71440715433006,-173.440260760889
21.3796208950222,4.71661383843983,-173.369831667745
21.8776162394954,4.71894290593789,-173.295844825908
22.3872113856833,4.721400832303,-173.218274817901
22.9086765276776,4.7239942843736,-173.137095181294
23.4422881531991,4.72673013054472,-173.052278420428
23.9883291901948,4.72961545129161,-172.963796020766
24.5470891568502,4.73265755037692,-172.871618466025
25.1188643150957,4.73586396640877,-172.77571525848
25.7039578276885,4.73924248495286,-172.676054942797
26.3026799189537,4.74280115105663,-172.572605133651
26.915348039269,4.74654828231323,-172.465332547596
27.5422870333815,4.75049248229266,-172.354203039356
28.1838293126444,4.75464265441004,-172.239181642907
28.8403150312659,4.75900801612441,-172.120232617723
29.5120922666637,4.76359811361972,-171.997319500511
30.19951720402,4.76842283666439,-171.870405162563
30.9029543251358,4.77349243392215,-171.739451873376
31.6227766016837,4.77881752837355,-171.604421370505
32.3593656929627,4.78440913312734,-171.46527493618
33.113112148259,4.79027866727663,-171.321973480956
33.8844156139201,4.79643797199398,-171.174477634667
34.673685045253,4.80289932666951,-171.022747845026
35.4813389233574,4.80967546516597,-170.866744484185
36.30780547701,4.81677959202912,-170.706427963633
37.1535229097171,4.82422539860516,-170.541758857553
38.0189396320559,4.83202707913546,-170.372698035247
38.9045144994279,4.84019934658486,-170.199206802648
39.8107170553495,4.84875744826512,-170.021247053448
40.7380277804111,4.85771718112206,-169.838781430051
41.6869383470333,4.86709490655853,-169.651773494622
42.6579518801591,4.87690756485829,-169.460187910596
43.6515832240164,4.88717268894778,-169.263990634905
44.6683592150961,4.89790841745167,-169.063149121114
45.7088189614873,4.90913350702681,-168.857632533803
46.7735141287196,4.92086734368987,-168.647411974326
47.8630092322636,4.93312995318337,-168.432460718243
48.9778819368444,4.9459420100984,-168.212754464392
50.118723362727,4.95932484574226,-167.988271595938
51.2861383991362,4.97330045451951,-167.758993453267
52.480746024977,4.98789149872039,-167.524904618832
53.703179637025,5.00312131148764,-167.285993213891
54.9540873857622,5.01901389787123,-167.042251206974
56.2341325190346,5.03559393376776,-166.793674733928
57.5439937337154,5.0528867624625,-166.540264429176
58.8843655355586,5.0709183887459,-166.282025767964
60.2559586074355,5.08971547027598,-166.018969418833
61.6595001861479,5.10930530603212,-165.751111606045
63.095734448019,5.12971582163585,-165.478474481037
64.5654229034652,5.15097555134408,-165.201086502009
66.0693448007593,5.17311361647924,-164.918982820881
67.6082975391978,5.19615970010929,-164.632205676226
69.1830970918933,5.22014401782737,-164.340804791136
70.7945784384134,5.24509728416989,-164.044837774206
72.4435960074986,5.27105067488004,-163.744370522491
74.1310241300914,5.29803578446753,-163.439477624228
75.857757502918,5.3260845790954,-163.13024275957
77.6247116628688,5.35522934455458,-162.816759097096
79.4328234724277,5.38550262923303,-162.499129683903
81.2830516164095,5.41693718183489,-162.177467826562
83.1763771102667,5.44956588401807,-161.851897460533
85.1138038202372,5.48342167752812,-161.522553505104
87.0963589956076,5.51853748613409,-161.189582200843
89.1250938133741,5.55494613217876,-160.853141426568
91.2010839355905,5.59268024773108,-160.51340099257
93.3254300796986,5.63177218070381,-160.17054290686
95.4992586021431,5.67225389574217,-159.824761610947
97.7237220955805,5.71415687027921,-159.476264181845
99.9999999999995,5.75751198584005,-159.125270496832
102.329299228075,5.80234941510366,-158.772013357602
104.712854805089,5.84869850475309,-158.416738570375
107.15193052376,5.89658765473744,-158.059704978889
109.647819614318,5.94604419435024,-157.701184446931
112.201845430196,5.9970942555493,-157.341461787853
114.815362149688,6.04976264419777,-156.980834637921
117.489755493952,6.10407270964003,-156.61961327142
120.226443461741,6.16004621353594,-156.258120355345
123.026877081237,6.21770319844508,-155.89669064183
125.892541179416,6.27706185694469,-155.535670597011
128.824955169313,6.33813840215829,-155.175417965372
131.82567385564,6.4009469402787,-154.81630126919
134.896288259165,6.46549934624391,-154.458699243099
138.038426460288,6.53180514299483,-154.103000204141
141.253754462275,6.59987138547887,-153.74960135856
144.543977074592,6.66970255005098,-153.398908047045
147.91083881682,6.74130043013977,-153.051332930106
151.35612484362,6.81466403901308,-152.707295116961
154.881661891247,6.88978952022443,-152.367219240342
158.48931924611,6.96667006671024,-152.031534481584
162.181009735892,7.045295849053,-151.700673549703
165.958690743755,7.12565395343432,-151.375071619225
169.824365246173,7.20772833001514,-151.055165231633
173.780082874936,7.29149975202979,-150.741391165661
177.827941003891,7.37694578615471,-150.434185282099
181.970085860997,7.46404077426131,-150.133981348793
186.208713666286,7.55275582693085,-149.841209851578
190.546071796323,7.64305882888284,-149.556296797446
194.984459975803,7.73491445614816,-149.279662515523
199.526231496887,7.82828420531539,-149.011720462288
204.173794466952,7.92312643444008,-148.752876036337
208.929613085403,8.01939641556674,-148.503525408913
213.796208950222,8.11704639859419,-148.264054375174
218.776162394954,8.21602568616014,-148.0348372319
223.872113856832,8.31628071913446,-147.816235686163
229.086765276776,8.41775517229856,-147.608597799708
234.422881531991,8.52039005981087,-147.412256973336
239.883291901947,8.62412384976805,-147.22753097517
245.470891568501,8.72889258747025,-147.054721016058
251.188643150956,8.8346300268137,-146.894110875711
257.039578276885,8.9412677689908,-146.745966081745
263.026799189536,9.04873540835918,-146.610533144625
269.15348039269,9.15696068437268,-146.488038850038
275.422870333815,9.26586963933843,-146.378689610878
281.838293126443,9.37538678123281,-146.282670879946
288.403150312659,9.48543525107633,-146.20014662482
295.120922666637,9.5959369942505,-146.131258865668
301.9951720402,9.70681293525375,-146.076127276981
309.029543251357,9.81798315521023,-146.034848853438
316.227766016836,9.92936707190058,-146.007497640912
323.593656929626,10.0408836213959,-145.994124532319
331.131121482589,10.1524514411136,-145.994757128998
338.8441561392,10.2639890537084,-146.009399667681
346.736850452529,10.3754150511336,-146.038033012811
354.813389233573,10.4866482786882,-146.080614714669
363.078054770099,10.5976080182636,-146.137079132986
371.53522909717,10.708214170448,-146.207337625899
380.189396320558,10.818387434982,-146.291278804259
389.045144994278,10.9280494889726,-146.388768850729
398.107170553494,11.0371231624275,-146.499651903448
407.38027780411,11.1455326104506,-146.623750503656
416.869383470332,11.253203481752,-146.760866106584
426.579518801589,11.3600630826354,-146.910779654583
436.515832240163,11.4660405360886,-147.073252211609
446.68359215096,11.5710669353737,-147.248025657376
457.088189614872,11.675075491359,-147.434823439817
467.735141287195,11.7780016731813,-147.633351383572
478.630092322635,11.8797833416101,-147.843298552519
489.778819368442,11.9803608743475,-148.064338163289
501.187233627268,12.0796772829725,-148.296128547221
512.861383991361,12.1776783207123,-148.538314156852
524.807460249769,12.2743125806966,-148.790526613517
537.031796370249,12.3695315841333,-149.052385791843
549.54087385762,12.4632898578882,-149.323500936378
562.341325190345,12.5555450012802,-149.603471805997
575.439937337152,12.6462577414557,-149.891889840411
588.843655355584,12.7353919773863,-150.188339343778
602.559586074353,12.8229148120564,-150.492398679578
616.595001861477,12.908796572729,-150.803641470968
630.957344480188,12.993010819476,-151.121637800798
645.65422903465,13.0755343416479,-151.44595540513
660.693448007591,13.1563471426911,-151.776160854431
676.082975391976,13.2354324134233,-152.111820716503
691.830970918931,13.3127764939766,-152.452502695192
707.945784384132,13.3883688248907,-152.797776739611
724.435960074984,13.4622018877729,-153.1472161182
741.310241300911,13.534271136018,-153.500398452846
758.577575029177,13.6045749161415,-153.856906708256
776.247116628685,13.6731143805038,-154.216330132445
794.328234724275,13.7398933919799,-154.578265144416
812.830516164092,13.8049184214378,-154.94231616588
831.763771102664,13.8681984387318,-155.308096394039
851.138038202369,13.9297447979804,-155.675228513264
870.963589956073,13.9895711181707,-156.04334534396
891.250938133738,14.0476931596104,-156.41209042727
912.010839355902,14.1041286972947,-156.781118545093
933.254300796983,14.1588973919715,-157.150096175199
954.992586021428,14.2120206595788,-157.518701881776
977.237220955802,14.2635215399813,-157.886626642233
999.999999999991,14.313424565765,-158.253574111551
1023.29299228075,14.3617556316561,-158.619260825808
1047.12854805089,14.4085418652993,-158.983416346864
1071.5193052376,14.4538115001528,-159.345783350656
1096.47819614318,14.4975937508503,-159.706117661646
1122.01845430195,14.5399186916441,-160.064188236365
1148.15362149687,14.580817138462,-160.419777099035
1174.89755493952,14.6203205348683,-160.772679232551
1202.2644346174,14.6584608423509,-161.122702428145
1230.26877081237,14.6952704351731,-161.469667097067
1258.92541179416,14.730782000126,-161.81340604778
1288.24955169312,14.7650284412551,-162.153764232048
1318.2567385564,14.7980427898099,-162.49059846331
1348.96288259164,14.8298581194622,-162.823777110693
1380.38426460287,14.8605074668032,-163.153179771863
1412.53754462274,14.8900237572125,-163.478696927867
1445.43977074591,14.9184397360578,-163.800229582964
1479.10838816819,14.9457879050928,-164.117688892274
1513.56124843619,14.972100464047,-164.430995779993
1548.81661891247,14.9974092572761,-164.740080550664
1584.8931924611,15.0217457252645,-165.044882495879
1621.81009735891,15.045140860979,-165.345349498621
1659.58690743754,15.0676251706729,-165.641437637254
1698.24365246173,15.0892286391747,-165.933110790963
1737.80082874936,15.1099806993696,-166.220340248356
1778.27941003891,15.1299102056094,-166.503104320687
1819.70085860997,15.1490454109125,-166.781387961063
1862.08713666285,15.1674139477635,-167.055182390755
1905.46071796323,15.1850428122669,-167.324484733678
1949.84459975803,15.2019583513532,-167.589297659935
1995.26231496886,15.2181862530128,-167.849629039073
2041.73794466951,15.2337515391222,-168.105491603781
2089.29613085402,15.2486785609254,-168.356902624458
2137.96208950221,15.2629909966532,-168.603883595063
2187.76162394953,15.2767118514492,-168.846459930527
2238.72113856832,15.2898634590389,-169.084660675964
2290.86765276775,15.3024674853194,-169.318518227735
2344.2288153199,15.3145449334337,-169.548068066472
2398.83291901947,15.3261161502793,-169.773348501981
2454.70891568501,15.337200834378,-169.994400430027
2511.88643150955,15.3478180447782,-170.211267100747
2570.39578276884,15.3579862110099,-170.423993898624
2630.26799189535,15.3677231438802,-170.63262813375
2691.53480392689,15.3770460470962,-170.837218844135
2754.22870333814,15.3859715294156,-171.037816608773
2818.38293126442,15.3945156174332,-171.234473371202
2884.03150312658,15.4026937688075,-171.427242273191
2951.20922666635,15.4105208858092,-171.616177498251
3019.95172040198,15.4180113291854,-171.801334124608
3090.29543251356,15.4251789322281,-171.982767987292
3162.27766016835,15.4320370149884,-172.160535548985
3235.93656929625,15.4385983985807,-172.334693779267
3311.31121482588,15.4448754195034,-172.505300041886
3388.44156139199,15.4508799439964,-172.672411989731
3467.36850452528,15.4566233821834,-172.836087467099
3548.13389233572,15.4621167023716,-172.996384418972
3630.78054770097,15.4673704449383,-173.1533608069
3715.35229097168,15.4723947362455,-173.307074531196
3801.89396320557,15.4771993022688,-173.457583359121
3890.45144994276,15.4817934820597,-173.604944858698
3981.07170553493,15.4861862409061,-173.7492163379
4073.80277804108,15.4903861833001,-173.89045478889
4168.69383470331,15.4944015656181,-174.028716837026
4265.79518801588,15.4982403085021,-174.164058694369
4365.15832240161,15.5019100089622,-174.296536117416
4466.83592150958,15.5054179522022,-174.42620436882
4570.8818961487,15.5087711230758,-174.553118182841
4677.35141287193,15.5119762173209,-174.677331734307
4786.30092322633,15.5150396524184,-174.798898610856
4897.78819368441,15.5179675781262,-174.917871788258
5011.87233627267,15.5207658868222,-175.034303608614
5128.61383991359,15.5234402233341,-175.148245761234
5248.07460249767,15.5259959946367,-175.259749266032
5370.31796370247,15.5284383791776,-175.368864459245
5495.40873857618,15.530772335863,-175.475640981336
5623.41325190343,15.5330026127913,-175.580127766912
5754.3993733715,15.5351337556701,-175.682373036521
5888.43655355582,15.5371701159932,-175.782424290199
6025.59586074351,15.5391158588258,-175.880328302611
6165.95001861475,15.5409749704221,-175.976131119705
6309.57344480186,15.5427512655294,-176.069878056735
6456.54229034648,15.5444483943741,-176.161613697548
6606.93448007588,15.5460698495116,-176.251381895062
6760.82975391974,15.5476189723184,-176.339225772806
6918.30970918928,15.5490989592158,-176.425187727452
7079.45784384129,15.550512867821,-176.509309432253
